# Data of the correlation along the created chain
#
# Step	Correlation
0	0.500080
1	0.250112
2	0.125094
3	0.062576
4	0.031314
5	0.015627
6	0.007818
7	0.003912
8	0.001945
9	0.000965
10	0.000483
11	0.000239
12	0.000119
13	0.000056
14	0.000026
15	0.000012
16	0.000005
17	0.000002
18	0.000001
19	0.000000
